# TR : TI K-EDGE IN EUTIO AT 300K.
# NSLS filename: tieuo.300
# NSLS/X11 EDC-5.02 10-Nov-95 00:09:22 E- ENERGY=2.584GEV
# 2-SI111 HC/2D= 1977.260 STPDEG=6400. STPMMZ= 40. FOCUS=F TRANSLT=F
# E0= 4966.0 NREG= 3 NPTS= 286 NSCLRS= 3 EF=     .0
# SRB=   -190.0    -30.0     30.0   1234.4
# DEL=           19.995    1.001     .070K
# SEC=             1.000    1.000    1.000
# GAINS:    I0=9       It=9       If=8
# OFFSETS:  I0=49192   It=53981   If=356
#---------------------------------------------------------------------
#     energy          xmu        
  0.4775986E+04   0.1444641E+01
  0.4795976E+04   0.1400682E+01
  0.4815975E+04   0.1353980E+01
  0.4835971E+04   0.1308055E+01
  0.4855983E+04   0.1262931E+01
  0.4875964E+04   0.1215647E+01
  0.4895956E+04   0.1172267E+01
  0.4915946E+04   0.1128537E+01
  0.4935944E+04   0.1084967E+01
  0.4936941E+04   0.1083064E+01
  0.4937952E+04   0.1080693E+01
  0.4938951E+04   0.1077988E+01
  0.4939962E+04   0.1076342E+01
  0.4940949E+04   0.1074631E+01
  0.4941949E+04   0.1072057E+01
  0.4942950E+04   0.1069959E+01
  0.4943951E+04   0.1067535E+01
  0.4944964E+04   0.1065975E+01
  0.4945954E+04   0.1063590E+01
  0.4946956E+04   0.1061733E+01
  0.4947958E+04   0.1059356E+01
  0.4948961E+04   0.1057169E+01
  0.4949978E+04   0.1054915E+01
  0.4950957E+04   0.1053008E+01
  0.4951961E+04   0.1051316E+01
  0.4952966E+04   0.1049721E+01
  0.4953959E+04   0.1047829E+01
  0.4954965E+04   0.1045613E+01
  0.4955971E+04   0.1044197E+01
  0.4956965E+04   0.1043118E+01
  0.4957973E+04   0.1040507E+01
  0.4958967E+04   0.1040972E+01
  0.4959988E+04   0.1047776E+01
  0.4960972E+04   0.1055379E+01
  0.4961968E+04   0.1065602E+01
  0.4962990E+04   0.1088597E+01
  0.4963975E+04   0.1075505E+01
  0.4964985E+04   0.1097566E+01
  0.4965971E+04   0.1130616E+01
  0.4966981E+04   0.1142041E+01
  0.4967993E+04   0.1137163E+01
  0.4968980E+04   0.1123936E+01
  0.4969993E+04   0.1125416E+01
  0.4970981E+04   0.1140363E+01
  0.4971981E+04   0.1180430E+01
  0.4972983E+04   0.1261748E+01
  0.4973984E+04   0.1370481E+01
  0.4974987E+04   0.1528806E+01
  0.4975989E+04   0.1737644E+01
  0.4977005E+04   0.1894773E+01
  0.4977983E+04   0.1910362E+01
  0.4978987E+04   0.1860574E+01
  0.4979992E+04   0.1788933E+01
  0.4981009E+04   0.1746283E+01
  0.4981989E+04   0.1736510E+01
  0.4982995E+04   0.1726930E+01
  0.4983988E+04   0.1734401E+01
  0.4984995E+04   0.1772523E+01
  0.4985989E+04   0.1804471E+01
  0.4986997E+04   0.1808834E+01
  0.4988004E+04   0.1799327E+01
  0.4989000E+04   0.1785184E+01
  0.4989997E+04   0.1781706E+01
  0.4990993E+04   0.1788118E+01
  0.4992003E+04   0.1791858E+01
  0.4993013E+04   0.1782103E+01
  0.4993999E+04   0.1768949E+01
  0.4995022E+04   0.1759435E+01
  0.4996008E+04   0.1751426E+01
  0.4997526E+04   0.1736652E+01
  0.4999070E+04   0.1700948E+01
  0.5000667E+04   0.1653021E+01
  0.5002289E+04   0.1610374E+01
  0.5003951E+04   0.1576022E+01
  0.5005677E+04   0.1562020E+01
  0.5007405E+04   0.1536340E+01
  0.5009172E+04   0.1511919E+01
  0.5010992E+04   0.1501548E+01
  0.5012851E+04   0.1489855E+01
  0.5014737E+04   0.1470370E+01
  0.5016663E+04   0.1464292E+01
  0.5018629E+04   0.1474705E+01
  0.5020622E+04   0.1488811E+01
  0.5022668E+04   0.1496267E+01
  0.5024742E+04   0.1491547E+01
  0.5026856E+04   0.1482867E+01
  0.5028997E+04   0.1480011E+01
  0.5031192E+04   0.1490399E+01
  0.5033427E+04   0.1511289E+01
  0.5035678E+04   0.1517591E+01
  0.5037982E+04   0.1508064E+01
  0.5040314E+04   0.1489130E+01
  0.5042701E+04   0.1480344E+01
  0.5045103E+04   0.1489038E+01
  0.5047545E+04   0.1508538E+01
  0.5050056E+04   0.1529952E+01
  0.5052568E+04   0.1539610E+01
  0.5055136E+04   0.1522740E+01
  0.5057720E+04   0.1487878E+01
  0.5060358E+04   0.1457525E+01
  0.5063038E+04   0.1443149E+01
  0.5065735E+04   0.1446967E+01
  0.5068487E+04   0.1457485E+01
  0.5071281E+04   0.1454389E+01
  0.5074092E+04   0.1436951E+01
  0.5076958E+04   0.1412833E+01
  0.5079855E+04   0.1387517E+01
  0.5082794E+04   0.1367060E+01
  0.5085763E+04   0.1357016E+01
  0.5088776E+04   0.1348931E+01
  0.5091832E+04   0.1338854E+01
  0.5094905E+04   0.1329024E+01
  0.5098035E+04   0.1318470E+01
  0.5101183E+04   0.1313938E+01
  0.5104374E+04   0.1308817E+01
  0.5107623E+04   0.1304001E+01
  0.5110890E+04   0.1301896E+01
  0.5114188E+04   0.1302381E+01
  0.5117543E+04   0.1305818E+01
  0.5120931E+04   0.1311587E+01
  0.5124336E+04   0.1309579E+01
  0.5127800E+04   0.1297090E+01
  0.5131310E+04   0.1276841E+01
  0.5134837E+04   0.1255258E+01
  0.5138398E+04   0.1239044E+01
  0.5142017E+04   0.1234064E+01
  0.5145642E+04   0.1233870E+01
  0.5149327E+04   0.1226210E+01
  0.5153044E+04   0.1214333E+01
  0.5156808E+04   0.1211300E+01
  0.5160604E+04   0.1208727E+01
  0.5164421E+04   0.1199324E+01
  0.5168298E+04   0.1187820E+01
  0.5172196E+04   0.1174595E+01
  0.5176140E+04   0.1157609E+01
  0.5180119E+04   0.1142810E+01
  0.5184131E+04   0.1131331E+01
  0.5188205E+04   0.1120012E+01
  0.5192286E+04   0.1105505E+01
  0.5196416E+04   0.1091101E+01
  0.5200580E+04   0.1083576E+01
  0.5204779E+04   0.1076747E+01
  0.5209027E+04   0.1069775E+01
  0.5213310E+04   0.1061257E+01
  0.5217628E+04   0.1058160E+01
  0.5221969E+04   0.1057471E+01
  0.5226387E+04   0.1052410E+01
  0.5230799E+04   0.1037656E+01
  0.5235261E+04   0.1017223E+01
  0.5239759E+04   0.9997994E+00
  0.5244308E+04   0.9888441E+00
  0.5248880E+04   0.9791104E+00
  0.5253488E+04   0.9703816E+00
  0.5258148E+04   0.9625649E+00
  0.5262845E+04   0.9564410E+00
  0.5267565E+04   0.9500120E+00
  0.5272323E+04   0.9422481E+00
  0.5277133E+04   0.9332245E+00
  0.5281966E+04   0.9230508E+00
  0.5286838E+04   0.9087002E+00
  0.5291777E+04   0.8942891E+00
  0.5296711E+04   0.8795987E+00
  0.5301699E+04   0.8659194E+00
  0.5306726E+04   0.8530359E+00
  0.5311806E+04   0.8413938E+00
  0.5316882E+04   0.8289617E+00
  0.5322042E+04   0.8181362E+00
  0.5327197E+04   0.8084301E+00
  0.5332407E+04   0.8010295E+00
  0.5337657E+04   0.7934188E+00
  0.5342948E+04   0.7859081E+00
  0.5348265E+04   0.7759370E+00
  0.5353637E+04   0.7633803E+00
  0.5359036E+04   0.7507466E+00
  0.5364490E+04   0.7376319E+00
  0.5369957E+04   0.7235634E+00
  0.5375451E+04   0.7098767E+00
  0.5381016E+04   0.6972104E+00
  0.5386593E+04   0.6858811E+00
  0.5392213E+04   0.6768187E+00
  0.5397875E+04   0.6675284E+00
  0.5403566E+04   0.6579909E+00
  0.5409299E+04   0.6486090E+00
  0.5415076E+04   0.6373361E+00
  0.5420880E+04   0.6257822E+00
  0.5426729E+04   0.6140621E+00
  0.5432622E+04   0.6008671E+00
  0.5438543E+04   0.5876976E+00
  0.5444509E+04   0.5743346E+00
  0.5450489E+04   0.5611711E+00
  0.5456529E+04   0.5484035E+00
  0.5462599E+04   0.5358853E+00
  0.5468729E+04   0.5243015E+00
  0.5474859E+04   0.5141073E+00
  0.5481034E+04   0.5051520E+00
  0.5487256E+04   0.4942667E+00
  0.5493508E+04   0.4833825E+00
  0.5499807E+04   0.4713635E+00
  0.5506137E+04   0.4595286E+00
  0.5512529E+04   0.4475098E+00
  0.5518938E+04   0.4354423E+00
  0.5525378E+04   0.4232289E+00
  0.5531851E+04   0.4101920E+00
  0.5538371E+04   0.3966118E+00
  0.5544923E+04   0.3849342E+00
  0.5551508E+04   0.3733721E+00
  0.5558142E+04   0.3620237E+00
  0.5564808E+04   0.3512280E+00
  0.5571540E+04   0.3400112E+00
  0.5578257E+04   0.3278323E+00
  0.5585040E+04   0.3157161E+00
  0.5591856E+04   0.3032688E+00
  0.5598708E+04   0.2913568E+00
  0.5605609E+04   0.2792825E+00
  0.5612544E+04   0.2667376E+00
  0.5619499E+04   0.2539622E+00
  0.5626503E+04   0.2413810E+00
  0.5633561E+04   0.2279382E+00
  0.5640636E+04   0.2163621E+00
  0.5647748E+04   0.2040758E+00
  0.5654911E+04   0.1914918E+00
  0.5662094E+04   0.1799093E+00
  0.5669313E+04   0.1675165E+00
  0.5676603E+04   0.1547493E+00
  0.5683895E+04   0.1415710E+00
  0.5691224E+04   0.1286646E+00
  0.5698606E+04   0.1166661E+00
  0.5706027E+04   0.1037167E+00
  0.5713484E+04   0.9171677E-01
  0.5720963E+04   0.7965359E-01
  0.5728497E+04   0.6751855E-01
  0.5736052E+04   0.5451981E-01
  0.5743662E+04   0.4204347E-01
  0.5751294E+04   0.2878566E-01
  0.5758982E+04   0.1656233E-01
  0.5766692E+04   0.3936521E-02
  0.5774441E+04   -.8571924E-02
  0.5782229E+04   -.2069575E-01
  0.5790059E+04   -.3366312E-01
  0.5797910E+04   -.4578892E-01
  0.5805818E+04   -.5885144E-01
  0.5813750E+04   -.7059492E-01
  0.5821741E+04   -.8280732E-01
  0.5829737E+04   -.9516003E-01
  0.5837792E+04   -.1072839E+00
  0.5845888E+04   -.1202734E+00
  0.5854008E+04   -.1327084E+00
  0.5862170E+04   -.1458249E+00
  0.5870393E+04   -.1587323E+00
  0.5878604E+04   -.1715958E+00
  0.5886875E+04   -.1841976E+00
  0.5895189E+04   -.1966596E+00
  0.5903528E+04   -.2089925E+00
  0.5911929E+04   -.2212958E+00
  0.5920337E+04   -.2333719E+00
  0.5928807E+04   -.2452287E+00
  0.5937303E+04   -.2564420E+00
  0.5945861E+04   -.2687204E+00
  0.5954428E+04   -.2807566E+00
  0.5963039E+04   -.2936355E+00
  0.5971676E+04   -.3061977E+00
  0.5980359E+04   -.3187056E+00
  0.5989087E+04   -.3309115E+00
  0.5997843E+04   -.3429747E+00
  0.6006625E+04   -.3555317E+00
  0.6015473E+04   -.3673984E+00
  0.6024329E+04   -.3799148E+00
  0.6033251E+04   -.3921032E+00
  0.6042183E+04   -.4046505E+00
  0.6051199E+04   -.4164671E+00
  0.6060186E+04   -.4286247E+00
  0.6069279E+04   -.4416492E+00
  0.6078343E+04   -.4531178E+00
  0.6087474E+04   -.4659820E+00
  0.6096654E+04   -.4783089E+00
  0.6105863E+04   -.4905728E+00
  0.6115101E+04   -.5024531E+00
  0.6124389E+04   -.5145294E+00
  0.6133707E+04   -.5269452E+00
  0.6143055E+04   -.5390351E+00
  0.6152452E+04   -.5509337E+00
  0.6161881E+04   -.5633022E+00
  0.6171359E+04   -.5750707E+00
  0.6180889E+04   -.5871466E+00
  0.6190410E+04   -.5993660E+00
  0.6199981E+04   -.6109508E+00
  0.6209604E+04   -.6230052E+00
